Time_abs/ps, Signal 1/nA, Signal 2/nA
  1888.000,     2.352797,    -0.001961
  1888.050,     1.324583,    -0.002722
  1888.100,     0.059358,     0.000777
  1888.150,    -1.267869,     0.004059
  1888.200,    -2.468869,    -0.000153
  1888.250,    -3.464878,     0.001703
  1888.300,    -4.226449,     0.000286
  1888.350,    -4.828894,     0.003106
  1888.400,    -5.392109,     0.002452
  1888.450,    -6.036540,    -0.000910
  1888.500,    -6.854408,    -0.001467
  1888.550,    -8.003553,    -0.000334
  1888.600,    -9.620875,    -0.001837
  1888.650,   -11.802356,     0.000706
  1888.700,   -14.453166,     0.000450
  1888.750,   -17.426997,     0.003591
  1888.800,   -20.621533,     0.000732
  1888.850,   -23.987913,     0.007574
  1888.900,   -27.598874,     0.001419
  1888.950,   -31.559807,     0.006383
  1889.000,   -36.013545,     0.006364
  1889.050,   -40.994923,     0.002972
  1889.100,   -46.420820,     0.004341
  1889.150,   -52.118063,     0.003351
  1889.200,   -57.713738,     0.005089
  1889.250,   -62.593667,     0.008471
  1889.300,   -65.556254,     0.004645
  1889.350,   -64.721968,     0.002922
  1889.400,   -57.204201,     0.005076
  1889.450,   -39.066769,    -0.002425
  1889.500,    -5.473382,    -0.013618
  1889.550,    48.604602,    -0.019751
  1889.600,   126.820577,    -0.023266
  1889.650,   229.102297,    -0.034529
  1889.700,   349.255074,    -0.036963
  1889.750,   473.520113,    -0.038401
  1889.800,   580.528232,    -0.039455
  1889.850,   643.457888,    -0.032428
  1889.900,   636.457977,    -0.030096
  1889.950,   546.213155,    -0.033552
  1890.000,   381.769702,    -0.028256
  1890.050,   173.610652,    -0.025956
  1890.100,   -39.042273,    -0.017715
  1890.150,  -223.268527,    -0.007469
  1890.200,  -360.958925,     0.007430
  1890.250,  -445.769267,     0.023127
  1890.300,  -478.250378,     0.023977
  1890.350,  -463.702230,     0.030336
  1890.400,  -411.954024,     0.031725
  1890.450,  -338.014801,     0.028069
  1890.500,  -259.300329,     0.028490
  1890.550,  -189.183926,     0.021213
  1890.600,  -132.288491,     0.015968
  1890.650,   -86.515263,     0.012333
  1890.700,   -49.737498,     0.009637
  1890.750,   -23.429940,     0.006005
  1890.800,   -10.084389,     0.007030
  1890.850,    -8.126317,     0.007011
  1890.900,   -11.526102,     0.005242
  1890.950,   -14.010415,     0.003891
  1891.000,   -12.601941,     0.001537
  1891.050,    -6.973457,     0.004037
  1891.100,     2.408330,     0.002063
  1891.150,    14.632167,     0.000545
  1891.200,    27.795866,    -0.001056
  1891.250,    39.489144,    -0.000416
  1891.300,    47.424715,    -0.000961
  1891.350,    49.162876,    -0.004694
  1891.400,    42.650384,    -0.000796
  1891.450,    28.022332,    -0.003159
  1891.500,     8.663214,    -0.002047
  1891.550,   -10.357495,     0.000211
  1891.600,   -24.450369,     0.001325
  1891.650,   -30.852193,     0.001959
  1891.700,   -28.981820,     0.001810
  1891.750,   -20.099868,     0.002284
  1891.800,    -6.125141,     0.003517
  1891.850,    10.852107,     0.001567
  1891.900,    27.570617,     0.000007
  1891.950,    39.372685,    -0.000010
  1892.000,    42.407319,    -0.000767
  1892.050,    36.315842,    -0.003145
  1892.100,    24.027996,    -0.002161
  1892.150,     9.551377,    -0.003789
  1892.200,    -3.466635,    -0.004824
  1892.250,   -12.665759,    -0.001542
  1892.300,   -17.770069,    -0.002591
  1892.350,   -20.038850,     0.000072
  1892.400,   -20.414449,     0.002383
  1892.450,   -18.800365,     0.004810
  1892.500,   -15.188952,     0.003388
  1892.550,   -10.419692,     0.005285
  1892.600,    -5.641632,     0.001891
  1892.650,    -1.770021,     0.003067
  1892.700,     0.995295,     0.000543
  1892.750,     3.144168,    -0.002981
  1892.800,     5.044249,    -0.003245
  1892.850,     6.590488,    -0.003508
  1892.900,     8.438482,    -0.002132
  1892.950,    12.472059,    -0.004046
  1893.000,    19.267539,    -0.004209
  1893.050,    26.701642,    -0.001585
  1893.100,    31.739061,     0.000526
  1893.150,    32.956913,     0.000538
  1893.200,    30.476017,     0.000173
  1893.250,    24.850842,     0.000603
  1893.300,    16.516244,     0.000186
  1893.350,     6.037734,     0.003020
  1893.400,    -5.384301,     0.001850
  1893.450,   -15.500649,     0.002024
  1893.500,   -21.565318,    -0.000297
  1893.550,   -21.441488,    -0.001320
  1893.600,   -14.365989,    -0.000975
  1893.650,    -1.589798,    -0.002939
  1893.700,    13.443209,    -0.003032
  1893.750,    26.350899,    -0.002932
  1893.800,    33.849991,    -0.000845
  1893.850,    34.967516,    -0.000554
  1893.900,    30.387571,     0.002996
  1893.950,    21.471648,     0.000660
  1894.000,    10.379081,     0.001056
  1894.050,     0.533563,     0.001413
  1894.100,    -4.215678,     0.002956
  1894.150,    -2.234127,     0.000048
  1894.200,     4.787624,    -0.000688
  1894.250,    13.719847,     0.000907
  1894.300,    22.280837,    -0.002775
  1894.350,    29.202968,    -0.001875
  1894.400,    33.417092,    -0.002087
  1894.450,    34.236142,    -0.001912
  1894.500,    32.016976,    -0.004850
  1894.550,    28.177972,    -0.007201
  1894.600,    24.064317,    -0.004304
  1894.650,    19.939204,    -0.000314
  1894.700,    15.366159,     0.000425
  1894.750,    10.425172,     0.001446
  1894.800,     5.816865,     0.003085
  1894.850,     2.108568,     0.002386
  1894.900,    -0.346580,     0.002348
  1894.950,    -1.083660,     0.000980
  1895.000,    -0.141445,     0.002754
  1895.050,     0.853239,     0.001387
  1895.100,    -0.604779,    -0.000565
  1895.150,    -5.496553,    -0.000907
  1895.200,   -11.833360,    -0.003941
  1895.250,   -15.766169,    -0.003628
  1895.300,   -14.551159,    -0.003856
  1895.350,    -8.748414,    -0.005410
  1895.400,    -1.482340,    -0.003378
  1895.450,     4.355630,    -0.001851
  1895.500,     7.895703,     0.001810
  1895.550,     9.519318,     0.005372
  1895.600,     9.541953,     0.004280
  1895.650,     8.193493,     0.003256
  1895.700,     6.085416,     0.004847
  1895.750,     4.073222,     0.000514
  1895.800,     2.828209,     0.000870
  1895.850,     2.414735,     0.002414
  1895.900,     2.563929,    -0.002027
  1895.950,     3.383996,    -0.004511
  1896.000,     5.563225,    -0.004332
  1896.050,     8.952958,    -0.003839
  1896.100,    11.685265,    -0.003520
  1896.150,    11.378584,    -0.003175
  1896.200,     7.558485,    -0.001884
  1896.250,     2.520039,    -0.001188
  1896.300,    -0.613894,     0.002566
  1896.350,    -0.624740,     0.005242
  1896.400,     1.367686,     0.003271
  1896.450,     3.887030,     0.002847
  1896.500,     6.646140,     0.004616
  1896.550,     9.746437,     0.004462
  1896.600,    12.330670,     0.002336
  1896.650,    12.845252,     0.002406
  1896.700,    10.415015,     0.000160
  1896.750,     5.884570,    -0.000180
  1896.800,     1.472712,    -0.002220
  1896.850,    -1.102183,    -0.002717
  1896.900,    -2.474846,    -0.006195
  1896.950,    -4.648354,    -0.002565
  1897.000,    -8.297575,    -0.005370
  1897.050,   -11.786934,    -0.004611
  1897.100,   -12.644965,     0.000682
  1897.150,    -9.808893,     0.002237
  1897.200,    -4.152040,     0.004657
  1897.250,     2.449225,     0.002547
  1897.300,     8.223351,     0.003044
  1897.350,    11.844358,     0.005516
  1897.400,    12.623045,     0.004929
  1897.450,    10.955733,     0.002228
  1897.500,     7.970918,     0.000721
  1897.550,     4.973575,     0.000671
  1897.600,     2.869958,    -0.002607
  1897.650,     1.860685,    -0.000799
  1897.700,     1.307285,    -0.001711
  1897.750,     0.477094,    -0.003352
  1897.800,    -0.220648,    -0.003746
  1897.850,     0.579813,    -0.001388
  1897.900,     3.541742,    -0.000535
  1897.950,     7.696397,     0.000168
  1898.000,    10.891728,     0.000928
  1898.050,    11.072410,     0.002559
  1898.100,     7.752468,     0.000276
  1898.150,     2.530261,    -0.001522
  1898.200,    -2.221249,     0.001949
  1898.250,    -5.145841,     0.000672
  1898.300,    -5.919953,    -0.001923
  1898.350,    -4.512137,     0.001583
  1898.400,    -1.332650,     0.002100
  1898.450,     2.260171,     0.003702
  1898.500,     4.533290,    -0.000048
  1898.550,     4.629957,    -0.002600
  1898.600,     3.087503,    -0.001246
  1898.650,     0.934011,    -0.001289
  1898.700,    -1.433438,    -0.001533
  1898.750,    -4.209020,    -0.003761
  1898.800,    -7.440024,    -0.004767
  1898.850,   -10.550706,    -0.001171
  1898.900,   -12.525439,     0.002573
  1898.950,   -12.525805,     0.003832
  1899.000,   -10.505601,     0.002782
  1899.050,    -7.429157,    -0.000566
  1899.100,    -4.276730,    -0.001108
  1899.150,    -1.234459,    -0.002310
  1899.200,     2.240159,    -0.001980
  1899.250,     6.476833,     0.000072
  1899.300,    10.990796,     0.001316
  1899.350,    14.814013,     0.000686
  1899.400,    17.206133,    -0.000563
  1899.450,    17.858758,     0.000523
  1899.500,    16.690339,     0.002778
  1899.550,    13.825892,     0.003199
  1899.600,     9.929513,    -0.000845
  1899.650,     6.108287,     0.000233
  1899.700,     3.167420,     0.002277
  1899.750,     1.245076,     0.001755
  1899.800,    -0.015950,    -0.002356
  1899.850,    -1.227711,    -0.004268
  1899.900,    -3.051110,    -0.002420
  1899.950,    -5.582929,    -0.002770
  1900.000,    -7.962598,    -0.005045
  1900.050,    -8.746022,    -0.003673
  1900.100,    -7.079424,    -0.000833
  1900.150,    -3.357641,    -0.001273
  1900.200,     0.949392,     0.000820
  1900.250,     4.266931,     0.003495
  1900.300,     5.535074,     0.003242
  1900.350,     4.672592,     0.003350
  1900.400,     2.653605,     0.006411
  1900.450,     0.641588,     0.003764
  1900.500,    -0.721918,     0.002539
  1900.550,    -1.409905,     0.003240
  1900.600,    -1.690666,     0.002231
  1900.650,    -1.865214,    -0.000463
  1900.700,    -2.005647,    -0.000468
  1900.750,    -1.803161,    -0.003342
  1900.800,    -0.975165,    -0.004631
  1900.850,     0.346493,    -0.004273
  1900.900,     1.694317,    -0.005077
  1900.950,     2.768058,    -0.004769
  1901.000,     3.698972,    -0.005400
  1901.050,     4.923793,    -0.005582
  1901.100,     6.676113,    -0.000627
  1901.150,     8.581783,     0.001203
  1901.200,     9.740335,     0.001875
  1901.250,     9.592516,     0.003128
  1901.300,     8.824755,     0.002724
  1901.350,     8.994571,     0.002953
  1901.400,    10.781485,     0.002502
  1901.450,    13.153248,     0.003967
  1901.500,    14.466586,     0.004140
  1901.550,    13.860392,     0.003263
  1901.600,    11.398345,    -0.002365
  1901.650,     7.437053,    -0.005845
  1901.700,     2.487552,    -0.003643
  1901.750,    -2.524486,    -0.005713
  1901.800,    -6.676533,    -0.002793
  1901.850,    -9.539958,    -0.004489
  1901.900,   -11.212765,    -0.005380
  1901.950,   -11.595701,    -0.000135
  1902.000,   -10.113693,     0.001900
  1902.050,    -6.112996,     0.000228
  1902.100,     0.401831,     0.001663
  1902.150,     8.367552,     0.002269
  1902.200,    16.070929,     0.000495
  1902.250,    21.705636,     0.002259
  1902.300,    24.042969,     0.001426
  1902.350,    22.492403,     0.001939
  1902.400,    17.343992,     0.003376
  1902.450,     9.838991,     0.001116
  1902.500,     1.885054,    -0.001661
  1902.550,    -4.769796,    -0.003366
  1902.600,    -9.305653,    -0.002353
  1902.650,   -11.827234,    -0.001845
  1902.700,   -12.631569,    -0.002420
  1902.750,   -11.390809,    -0.001660
  1902.800,    -7.387778,    -0.002524
  1902.850,    -0.616081,    -0.001289
  1902.900,     7.452367,    -0.001635
  1902.950,    14.402248,     0.001559
  1903.000,    18.252711,     0.000672
  1903.050,    18.377187,    -0.002193
  1903.100,    15.668903,    -0.000077
  1903.150,    11.727231,    -0.000484
  1903.200,     7.740281,    -0.000831
  1903.250,     4.327633,    -0.000039
  1903.300,     2.116226,     0.000761
  1903.350,     1.554986,     0.001030
  1903.400,     2.207876,     0.002879
  1903.450,     2.861872,     0.002250
  1903.500,     2.395989,    -0.000820
  1903.550,     0.511317,     0.000052
  1903.600,    -2.329124,     0.000346
  1903.650,    -5.185894,     0.000078
  1903.700,    -7.060007,     0.001140
  1903.750,    -7.213565,     0.000122
  1903.800,    -5.322115,     0.001115
  1903.850,    -1.562534,     0.000380
  1903.900,     3.565352,    -0.001525
  1903.950,     9.082429,    -0.002116
  1904.000,    13.700358,    -0.002297
  1904.050,    16.208003,    -0.000507
  1904.100,    15.814999,     0.000903
  1904.150,    12.445838,     0.002588
  1904.200,     6.561727,    -0.001120
  1904.250,    -0.953586,    -0.000164
  1904.300,    -8.980786,    -0.000539
  1904.350,   -15.985500,     0.000849
  1904.400,   -19.958287,     0.003566
  1904.450,   -19.191164,     0.003593
  1904.500,   -13.682026,     0.001931
  1904.550,    -5.521585,    -0.000215
  1904.600,     2.662880,     0.001056
  1904.650,     9.211242,     0.002388
  1904.700,    13.681885,     0.001372
  1904.750,    15.924392,     0.000877
  1904.800,    15.914174,     0.000583
  1904.850,    14.200172,    -0.003477
  1904.900,    11.984563,    -0.002468
  1904.950,    10.669072,    -0.001216
  1905.000,    11.026822,    -0.002528
  1905.050,    12.774802,    -0.001410
  1905.100,    14.693060,    -0.001156
  1905.150,    15.314645,    -0.001690
  1905.200,    13.610128,    -0.001240
  1905.250,     9.352378,    -0.001754
  1905.300,     2.949124,     0.000156
  1905.350,    -4.583139,     0.002236
  1905.400,   -11.645916,    -0.000312
  1905.450,   -16.271988,     0.001650
  1905.500,   -16.823516,     0.004116
  1905.550,   -12.696227,     0.001745
  1905.600,    -4.725973,     0.000555
  1905.650,     5.033697,     0.001497
  1905.700,    14.315902,     0.000960
  1905.750,    21.683269,    -0.000013
  1905.800,    26.507847,    -0.001760
  1905.850,    28.095796,    -0.000204
  1905.900,    25.437070,     0.001401
  1905.950,    17.911066,    -0.000646
  1906.000,     6.160475,    -0.001155
  1906.050,    -7.471285,    -0.001987
  1906.100,   -19.470242,    -0.001656
  1906.150,   -26.416728,    -0.002552
  1906.200,   -26.514817,    -0.004245
  1906.250,   -20.280323,    -0.002272
  1906.300,    -9.852908,    -0.002201
  1906.350,     2.155225,    -0.000712
  1906.400,    13.271878,    -0.002747
  1906.450,    21.362756,     0.000116
  1906.500,    25.240596,    -0.000249
  1906.550,    25.210075,    -0.000486
  1906.600,    22.758674,    -0.000202
  1906.650,    19.402460,    -0.001135
  1906.700,    15.816973,     0.001146
  1906.750,    11.995212,     0.001857
  1906.800,     7.833950,     0.004306
  1906.850,     3.432318,     0.001356
  1906.900,    -0.828996,    -0.000829
  1906.950,    -4.510535,     0.000984
  1907.000,    -7.323896,     0.002076
  1907.050,    -9.113914,     0.001422
  1907.100,    -9.775408,     0.000356
  1907.150,    -9.198404,    -0.000114
  1907.200,    -7.423415,    -0.000248
  1907.250,    -4.761935,    -0.002013
  1907.300,    -1.671245,    -0.000413
  1907.350,     1.410187,     0.001074
  1907.400,     4.350005,    -0.000814
  1907.450,     7.355115,    -0.002493
  1907.500,    10.715785,    -0.001059
  1907.550,    14.303234,     0.000039
  1907.600,    17.309476,    -0.001114
  1907.650,    18.391203,    -0.000169
  1907.700,    16.483769,     0.001509
  1907.750,    11.507848,     0.002760
  1907.800,     4.452818,     0.002517
  1907.850,    -3.037452,     0.000735
  1907.900,    -9.328807,     0.001720
  1907.950,   -13.274682,     0.003050
  1908.000,   -14.350021,     0.001341
  1908.050,   -12.322486,     0.001275
  1908.100,    -7.327065,     0.001506
  1908.150,    -0.288654,     0.001720
  1908.200,     6.998606,    -0.000329
  1908.250,    12.886947,    -0.001419
  1908.300,    16.459624,    -0.000810
  1908.350,    17.388765,    -0.001700
  1908.400,    15.698116,    -0.001385
  1908.450,    12.049222,    -0.002742
  1908.500,     7.756127,    -0.002272
  1908.550,     4.225632,    -0.001560
  1908.600,     2.222886,    -0.003392
  1908.650,     1.595835,    -0.003451
  1908.700,     1.502802,    -0.000883
  1908.750,     1.102838,    -0.000139
  1908.800,     0.076038,     0.001670
  1908.850,    -1.382465,     0.001520
  1908.900,    -3.050269,     0.002105
  1908.950,    -4.867229,     0.002814
  1909.000,    -6.683452,     0.003308
  1909.050,    -7.935088,     0.002555
  1909.100,    -7.666005,     0.003069
  1909.150,    -5.117026,     0.001482
  1909.200,    -0.270750,     0.000560
  1909.250,     5.870234,     0.000986
  1909.300,    11.540908,     0.001615
  1909.350,    15.185234,    -0.000197
  1909.400,    16.318161,     0.000582
  1909.450,    14.998816,    -0.001390
  1909.500,    11.038061,    -0.001727
  1909.550,     4.238910,    -0.001349
  1909.600,    -4.728010,     0.000524
  1909.650,   -13.947440,    -0.001406
  1909.700,   -20.762457,    -0.001519
  1909.750,   -22.977592,     0.002798
  1909.800,   -19.815094,     0.004184
  1909.850,   -12.313918,     0.000013
  1909.900,    -2.682536,     0.001194
  1909.950,     6.757332,     0.001046
  1910.000,    14.221875,    -0.000230
  1910.050,    18.694360,     0.004445
  1910.100,    19.726824,     0.003610
  1910.150,    17.509648,     0.003181
  1910.200,    12.877342,     0.002961
  1910.250,     7.268680,     0.000120
  1910.300,     2.396536,    -0.001770
  1910.350,    -0.452001,    -0.000720
  1910.400,    -0.934331,    -0.002706
  1910.450,     0.326295,    -0.001972
  1910.500,     2.364781,    -0.000799
  1910.550,     4.421672,     0.000288
  1910.600,     5.878737,    -0.000901
  1910.650,     6.272567,    -0.002636
  1910.700,     5.664509,    -0.000897
  1910.750,     4.688478,     0.000779
  1910.800,     4.054815,     0.000651
  1910.850,     4.044918,    -0.000571
  1910.900,     4.587096,    -0.002170
  1910.950,     5.355693,     0.000244
  1911.000,     5.916928,    -0.000585
  1911.050,     5.987872,    -0.000669
  1911.100,     5.598616,     0.001627
  1911.150,     4.958036,     0.000551
  1911.200,     4.318125,    -0.000282
  1911.250,     3.696191,    -0.000556
  1911.300,     2.917894,    -0.001638
  1911.350,     1.797571,     0.000254
  1911.400,     0.549575,     0.000590
  1911.450,    -0.215877,    -0.000299
  1911.500,     0.075435,    -0.000615
  1911.550,     1.587745,    -0.000996
  1911.600,     4.142227,     0.001083
  1911.650,     7.367225,    -0.000528
  1911.700,    10.426560,    -0.000571
  1911.750,    12.213586,    -0.000266
  1911.800,    12.099047,     0.000726
  1911.850,    10.368893,    -0.001484
  1911.900,     7.833952,    -0.003707
  1911.950,     5.232815,    -0.003427
  1912.000,     3.010606,    -0.002395
  1912.050,     1.463871,    -0.000291
  1912.100,     0.815563,     0.002113
  1912.150,     1.149736,    -0.000799
  1912.200,     2.327259,    -0.000868
  1912.250,     3.889489,     0.001033
  1912.300,     5.020485,     0.002778
  1912.350,     4.929717,     0.001609
  1912.400,     3.306324,     0.002430
  1912.450,     0.652597,     0.000809
  1912.500,    -2.005596,     0.002576
  1912.550,    -3.593727,     0.001203
  1912.600,    -3.557236,     0.002643
  1912.650,    -2.206941,    -0.002800
  1912.700,    -0.309442,    -0.002424
  1912.750,     1.604685,    -0.001046
  1912.800,     3.340335,    -0.000291
  1912.850,     4.693296,    -0.001555
  1912.900,     5.432371,    -0.000454
